Nummer	Zeit [ms]	T1	T2
0 	 2195 	 24.413550 
1 	 2207 	 24.436628 
2 	 2215 	 24.436628 
3 	 2227 	 24.414242 
4 	 2241 	 24.414242 
5 	 2245 	 24.431320 
6 	 2255 	 24.431320 
7 	 2273 	 24.417473 
8 	 2277 	 24.417473 
9 	 2285 	 24.430166 
10 	 2295 	 24.430166 
11 	 2305 	 24.431551 
12 	 2315 	 24.431551 
13 	 2325 	 24.449320 
14 	 2335 	 24.449320 
15 	 2345 	 24.443089 
16 	 2357 	 24.443089 
17 	 2365 	 24.423243 
18 	 2389 	 24.423243 
19 	 2393 	 24.431551 
20 	 2397 	 24.431551 
21 	 2405 	 24.451859 
22 	 2415 	 24.451859 
23 	 2425 	 24.435474 
24 	 2435 	 24.435474 
25 	 2444 	 24.431320 
26 	 2454 	 24.431320 
27 	 2464 	 24.416781 
28 	 2474 	 24.416781 
29 	 2484 	 24.429474 
30 	 2494 	 24.429474 
31 	 2504 	 24.419320 
32 	 2522 	 24.419320 
33 	 2534 	 24.433628 
34 	 2538 	 24.433628 
35 	 2544 	 24.432935 
36 	 2554 	 24.432935 
37 	 2564 	 24.412627 
38 	 2574 	 24.412627 
39 	 2588 	 24.429935 
40 	 2594 	 24.429935 
41 	 2604 	 24.449320 
42 	 2614 	 24.449320 
43 	 2624 	 24.429704 
44 	 2646 	 24.429704 
45 	 2658 	 24.413781 
46 	 2662 	 24.413781 
47 	 2674 	 24.425089 
48 	 2688 	 24.425089 
49 	 2694 	 24.440551 
50 	 2708 	 24.440551 
51 	 2712 	 24.423243 
52 	 2716 	 24.423243 
53 	 2726 	 24.448397 
54 	 2740 	 24.448397 
55 	 2744 	 24.424858 
56 	 2756 	 24.424858 
57 	 2764 	 24.440320 
58 	 2788 	 24.440320 
59 	 2802 	 24.417473 
60 	 2806 	 24.417473 
61 	 2806 	 24.458320 
62 	 2817 	 24.458320 
63 	 2823 	 24.426012 
64 	 2841 	 24.426012 
65 	 2849 	 24.441243 
66 	 2853 	 24.441243 
67 	 2865 	 24.420012 
68 	 2877 	 24.420012 
69 	 2885 	 24.424858 
70 	 2895 	 24.424858 
71 	 2907 	 24.442166 
72 	 2915 	 24.442166 
73 	 2925 	 24.417935 
74 	 2937 	 24.417935 
75 	 2945 	 24.447243 
76 	 2955 	 24.447243 
77 	 2965 	 24.449551 
78 	 2975 	 24.449551 
79 	 2985 	 24.423704 
80 	 2995 	 24.423704 
81 	 3005 	 24.443782 
82 	 3021 	 24.443782 
83 	 3025 	 24.423243 
84 	 3037 	 24.423243 
85 	 3053 	 24.431551 
86 	 3057 	 24.431551 
87 	 3067 	 24.459935 
88 	 3075 	 24.459935 
89 	 3085 	 24.419550 
90 	 3095 	 24.419550 
91 	 3107 	 24.442397 
92 	 3115 	 24.442397 
93 	 3131 	 24.448628 
94 	 3135 	 24.448628 
95 	 3145 	 24.435705 
96 	 3155 	 24.435705 
97 	 3165 	 24.457397 
98 	 3175 	 24.457397 
99 	 3185 	 24.437782 
100 	 3206 	 24.437782 
101 	 3210 	 24.452551 
102 	 3214 	 24.452551 
103 	 3224 	 24.452551 
104 	 3234 	 24.452551 
105 	 3244 	 24.422550 
106 	 3254 	 24.422550 
107 	 3268 	 24.412627 
108 	 3274 	 24.412627 
109 	 3284 	 24.476551 
110 	 3294 	 24.476551 
111 	 3304 	 24.444705 
112 	 3316 	 24.444705 
113 	 3324 	 24.457628 
114 	 3334 	 24.457628 
115 	 3344 	 24.437089 
116 	 3358 	 24.437089 
117 	 3364 	 24.450705 
118 	 3374 	 24.450705 
119 	 3384 	 24.452320 
120 	 3408 	 24.452320 
121 	 3412 	 24.457859 
122 	 3416 	 24.457859 
123 	 3440 	 24.443320 
124 	 3448 	 24.443320 
125 	 3454 	 24.444012 
126 	 3458 	 24.444012 
127 	 3464 	 24.418627 
128 	 3474 	 24.418627 
129 	 3484 	 24.432012 
130 	 3494 	 24.432012 
131 	 3506 	 24.446551 
132 	 3514 	 24.446551 
133 	 3524 	 24.449089 
134 	 3536 	 24.449089 
135 	 3544 	 24.431781 
136 	 3556 	 24.431781 
137 	 3565 	 24.457628 
138 	 3573 	 24.457628 
139 	 3585 	 24.429474 
140 	 3593 	 24.429474 
141 	 3605 	 24.453012 
142 	 3613 	 24.453012 
143 	 3625 	 24.444474 
144 	 3635 	 24.444474 
145 	 3645 	 24.430628 
146 	 3655 	 24.430628 
147 	 3667 	 24.450012 
148 	 3675 	 24.450012 
149 	 3687 	 24.454628 
150 	 3703 	 24.454628 
151 	 3707 	 24.436858 
152 	 3715 	 24.436858 
153 	 3727 	 24.431781 
154 	 3741 	 24.431781 
155 	 3745 	 24.453243 
156 	 3755 	 24.453243 
157 	 3765 	 24.423243 
158 	 3775 	 24.423243 
159 	 3787 	 24.440320 
160 	 3795 	 24.440320 
161 	 3807 	 24.440320 
162 	 3825 	 24.440320 
163 	 3841 	 24.450012 
164 	 3853 	 24.450012 
165 	 3857 	 24.411242 
166 	 3857 	 24.411242 
167 	 3865 	 24.427858 
168 	 3875 	 24.427858 
169 	 3885 	 24.445628 
170 	 3903 	 24.445628 
171 	 3907 	 24.451397 
172 	 3915 	 24.451397 
173 	 3925 	 24.447243 
174 	 3948 	 24.447243 
175 	 3952 	 24.401088 
176 	 3964 	 24.401088 
177 	 3968 	 24.434782 
178 	 3974 	 24.434782 
179 	 3984 	 24.437551 
180 	 3994 	 24.437551 
181 	 4004 	 24.447936 
182 	 4014 	 24.447936 
183 	 4024 	 24.425320 
184 	 4040 	 24.425320 
185 	 4044 	 24.455782 
186 	 4054 	 24.455782 
187 	 4064 	 24.432474 
188 	 4087 	 24.432474 
189 	 4091 	 24.443089 
190 	 4103 	 24.443089 
191 	 4119 	 24.442166 
192 	 4123 	 24.442166 
193 	 4127 	 24.460859 
194 	 4135 	 24.460859 
195 	 4145 	 24.444474 
196 	 4155 	 24.444474 
197 	 4165 	 24.455551 
198 	 4175 	 24.455551 
199 	 4185 	 24.458089 
200 	 4195 	 24.458089 
201 	 4207 	 24.451628 
202 	 4215 	 24.451628 
203 	 4227 	 24.427628 
204 	 4235 	 24.427628 
205 	 4245 	 24.433628 
206 	 4258 	 24.433628 
207 	 4264 	 24.444243 
208 	 4274 	 24.444243 
209 	 4286 	 24.440320 
210 	 4306 	 24.440320 
211 	 4309 	 24.442166 
212 	 4321 	 24.442166 
213 	 4325 	 24.450936 
214 	 4337 	 24.450936 
215 	 4345 	 24.448166 
216 	 4355 	 24.448166 
217 	 4363 	 24.426935 
218 	 4389 	 24.426935 
219 	 4393 	 24.436397 
220 	 4399 	 24.436397 
221 	 4403 	 24.453243 
222 	 4415 	 24.453243 
223 	 4424 	 24.419781 
224 	 4434 	 24.419781 
225 	 4446 	 24.428089 
226 	 4456 	 24.428089 
227 	 4464 	 24.466166 
228 	 4474 	 24.466166 
229 	 4484 	 24.451859 
230 	 4496 	 24.451859 
231 	 4504 	 24.458089 
232 	 4514 	 24.458089 
233 	 4524 	 24.449320 
234 	 4538 	 24.449320 
235 	 4544 	 24.459705 
236 	 4554 	 24.459705 
237 	 4564 	 24.445166 
238 	 4574 	 24.445166 
239 	 4586 	 24.470089 
240 	 4594 	 24.470089 
241 	 4606 	 24.448166 
242 	 4614 	 24.448166 
243 	 4624 	 24.459474 
244 	 4634 	 24.459474 
245 	 4644 	 24.445166 
246 	 4654 	 24.445166 
247 	 4664 	 24.469397 
248 	 4674 	 24.469397 
249 	 4685 	 24.460397 
250 	 4693 	 24.460397 
251 	 4703 	 24.480935 
252 	 4713 	 24.480935 
253 	 4723 	 24.463859 
254 	 4739 	 24.463859 
255 	 4757 	 24.446320 
256 	 4761 	 24.446320 
257 	 4773 	 24.444474 
258 	 4777 	 24.444474 
259 	 4785 	 24.442166 
260 	 4795 	 24.442166 
261 	 4805 	 24.436628 
262 	 4815 	 24.436628 
263 	 4835 	 24.470782 
264 	 4839 	 24.470782 
265 	 4853 	 24.434782 
266 	 4857 	 24.434782 
267 	 4865 	 24.433166 
268 	 4883 	 24.433166 
269 	 4891 	 24.452089 
270 	 4895 	 24.452089 
271 	 4905 	 24.449320 
272 	 4915 	 24.449320 
273 	 4925 	 24.441243 
274 	 4935 	 24.441243 
275 	 4945 	 24.466166 
276 	 4955 	 24.466166 
277 	 4965 	 24.451397 
278 	 4975 	 24.451397 
279 	 4985 	 24.432012 
280 	 4995 	 24.432012 
281 	 5005 	 24.438012 
282 	 5015 	 24.438012 
283 	 5025 	 24.462705 
284 	 5035 	 24.462705 
285 	 5045 	 24.439859 
286 	 5057 	 24.439859 
287 	 5070 	 24.431551 
288 	 5074 	 24.431551 
289 	 5084 	 24.465012 
290 	 5094 	 24.465012 
291 	 5104 	 24.481627 
292 	 5114 	 24.481627 
293 	 5124 	 24.430166 
294 	 5134 	 24.430166 
295 	 5146 	 24.473089 
296 	 5156 	 24.473089 
297 	 5164 	 24.475858 
298 	 5174 	 24.475858 
299 	 5184 	 24.462012 
300 	 5194 	 24.462012 
301 	 5204 	 24.469166 
302 	 5214 	 24.469166 
303 	 5224 	 24.465012 
304 	 5234 	 24.465012 
305 	 5244 	 24.453243 
306 	 5256 	 24.453243 
307 	 5264 	 24.440551 
308 	 5274 	 24.440551 
309 	 5286 	 24.437551 
310 	 5294 	 24.437551 
311 	 5306 	 24.443320 
312 	 5314 	 24.443320 
313 	 5324 	 24.464089 
314 	 5334 	 24.464089 
315 	 5344 	 24.447243 
316 	 5356 	 24.447243 
317 	 5364 	 24.448397 
318 	 5374 	 24.448397 
319 	 5390 	 24.452320 
320 	 5396 	 24.452320 
321 	 5406 	 24.482089 
322 	 5416 	 24.482089 
323 	 5424 	 24.459705 
324 	 5433 	 24.459705 
325 	 5455 	 24.467782 
326 	 5459 	 24.467782 
327 	 5463 	 24.464320 
328 	 5487 	 24.464320 
329 	 5491 	 24.452089 
330 	 5495 	 24.452089 
331 	 5503 	 24.471474 
332 	 5515 	 24.471474 
333 	 5525 	 24.448859 
334 	 5537 	 24.448859 
335 	 5545 	 24.477012 
336 	 5555 	 24.477012 
337 	 5565 	 24.458782 
338 	 5575 	 24.458782 
339 	 5585 	 24.426935 
340 	 5595 	 24.426935 
341 	 5605 	 24.448397 
342 	 5615 	 24.448397 
343 	 5625 	 24.460166 
344 	 5635 	 24.460166 
345 	 5645 	 24.442628 
346 	 5657 	 24.442628 
347 	 5673 	 24.440089 
348 	 5677 	 24.440089 
349 	 5685 	 24.453936 
350 	 5695 	 24.453936 
351 	 5705 	 24.437551 
352 	 5715 	 24.437551 
353 	 5725 	 24.452782 
354 	 5739 	 24.452782 
355 	 5745 	 24.457628 
356 	 5755 	 24.457628 
357 	 5765 	 24.449320 
358 	 5775 	 24.449320 
359 	 5785 	 24.470782 
360 	 5795 	 24.470782 
361 	 5805 	 24.469628 
362 	 5814 	 24.469628 
363 	 5832 	 24.458551 
364 	 5838 	 24.458551 
365 	 5848 	 24.456936 
366 	 5854 	 24.456936 
367 	 5864 	 24.449782 
368 	 5874 	 24.449782 
369 	 5884 	 24.467782 
370 	 5894 	 24.467782 
371 	 5904 	 24.437089 
372 	 5914 	 24.437089 
373 	 5924 	 24.474474 
374 	 5936 	 24.474474 
375 	 5944 	 24.451628 
376 	 5954 	 24.451628 
377 	 5964 	 24.458782 
378 	 5974 	 24.458782 
379 	 5984 	 24.459474 
380 	 5994 	 24.459474 
381 	 6004 	 24.475628 
382 	 6018 	 24.475628 
383 	 6024 	 24.471012 
384 	 6034 	 24.471012 
385 	 6046 	 24.462474 
386 	 6054 	 24.462474 
387 	 6064 	 24.430166 
388 	 6074 	 24.430166 
389 	 6090 	 24.463397 
390 	 6106 	 24.463397 
391 	 6124 	 24.435474 
392 	 6128 	 24.435474 
393 	 6128 	 24.458551 
394 	 6134 	 24.458551 
395 	 6144 	 24.455782 
396 	 6154 	 24.455782 
397 	 6164 	 24.470089 
398 	 6174 	 24.470089 
399 	 6186 	 24.459243 
400 	 6193 	 24.459243 
401 	 6207 	 24.460859 
402 	 6217 	 24.460859 
403 	 6223 	 24.461782 
404 	 6235 	 24.461782 
405 	 6243 	 24.481627 
406 	 6257 	 24.481627 
407 	 6265 	 24.449782 
408 	 6275 	 24.449782 
409 	 6285 	 24.454166 
410 	 6295 	 24.454166 
411 	 6307 	 24.450243 
412 	 6315 	 24.450243 
413 	 6327 	 24.455782 
414 	 6335 	 24.455782 
415 	 6345 	 24.467782 
416 	 6357 	 24.467782 
417 	 6365 	 24.440782 
418 	 6375 	 24.440782 
419 	 6389 	 24.466859 
420 	 6405 	 24.466859 
421 	 6409 	 24.459243 
422 	 6415 	 24.459243 
423 	 6425 	 24.476089 
424 	 6435 	 24.476089 
425 	 6445 	 24.457628 
426 	 6455 	 24.457628 
427 	 6465 	 24.449782 
428 	 6475 	 24.449782 
429 	 6489 	 24.455782 
430 	 6495 	 24.455782 
431 	 6505 	 24.443089 
432 	 6515 	 24.443089 
433 	 6525 	 24.466166 
434 	 6535 	 24.466166 
435 	 6545 	 24.445859 
436 	 6554 	 24.445859 
437 	 6564 	 24.460397 
438 	 6574 	 24.460397 
439 	 6584 	 24.473089 
440 	 6594 	 24.473089 
441 	 6604 	 24.467782 
442 	 6614 	 24.467782 
443 	 6624 	 24.468705 
444 	 6634 	 24.468705 
445 	 6644 	 24.460166 
446 	 6654 	 24.460166 
447 	 6664 	 24.459705 
448 	 6674 	 24.459705 
449 	 6684 	 24.474012 
450 	 6694 	 24.474012 
451 	 6704 	 24.470551 
452 	 6714 	 24.470551 
453 	 6724 	 24.489473 
454 	 6740 	 24.489473 
455 	 6746 	 24.476551 
456 	 6754 	 24.476551 
457 	 6764 	 24.462474 
458 	 6778 	 24.462474 
459 	 6784 	 24.466859 
460 	 6806 	 24.466859 
461 	 6808 	 24.476320 
462 	 6814 	 24.476320 
463 	 6838 	 24.455782 
464 	 6842 	 24.455782 
465 	 6846 	 24.444474 
466 	 6856 	 24.444474 
467 	 6866 	 24.468935 
468 	 6876 	 24.468935 
469 	 6884 	 24.447243 
470 	 6894 	 24.447243 
471 	 6906 	 24.490627 
472 	 6916 	 24.490627 
473 	 6924 	 24.464320 
474 	 6933 	 24.464320 
475 	 6943 	 24.457628 
476 	 6955 	 24.457628 
477 	 6963 	 24.498704 
478 	 6973 	 24.498704 
479 	 6985 	 24.468243 
480 	 7005 	 24.468243 
481 	 7009 	 24.471705 
482 	 7023 	 24.471705 
483 	 7027 	 24.475628 
484 	 7041 	 24.475628 
485 	 7045 	 24.432474 
486 	 7055 	 24.432474 
487 	 7065 	 24.441935 
488 	 7089 	 24.441935 
489 	 7093 	 24.466397 
490 	 7095 	 24.466397 
491 	 7105 	 24.484858 
492 	 7115 	 24.484858 
493 	 7125 	 24.456012 
494 	 7135 	 24.456012 
495 	 7145 	 24.476089 
496 	 7155 	 24.476089 
497 	 7165 	 24.471705 
498 	 7175 	 24.471705 
499 	 7185 	 24.465935 
500 	 7195 	 24.465935 
501 	 7207 	 24.433628 
502 	 7217 	 24.433628 
503 	 7225 	 24.491781 
504 	 7237 	 24.491781 
505 	 7245 	 24.453705 
506 	 7257 	 24.453705 
507 	 7273 	 24.485089 
508 	 7277 	 24.485089 
509 	 7289 	 24.450705 
510 	 7306 	 24.450705 
511 	 7310 	 24.477704 
512 	 7314 	 24.477704 
513 	 7324 	 24.468243 
514 	 7334 	 24.468243 
515 	 7350 	 24.471243 
516 	 7354 	 24.471243 
517 	 7372 	 24.460166 
518 	 7376 	 24.460166 
519 	 7384 	 24.459243 
520 	 7394 	 24.459243 
521 	 7404 	 24.476320 
522 	 7414 	 24.476320 
523 	 7424 	 24.481166 
524 	 7434 	 24.481166 
525 	 7451 	 24.458782 
526 	 7455 	 24.458782 
527 	 7467 	 24.447243 
528 	 7475 	 24.447243 
529 	 7485 	 24.471243 
530 	 7495 	 24.471243 
531 	 7505 	 24.467089 
532 	 7515 	 24.467089 
533 	 7525 	 24.498704 
534 	 7535 	 24.498704 
535 	 7545 	 24.485320 
536 	 7559 	 24.485320 
537 	 7571 	 24.483012 
538 	 7575 	 24.483012 
539 	 7585 	 24.446089 
540 	 7595 	 24.446089 
541 	 7605 	 24.501242 
542 	 7615 	 24.501242 
543 	 7625 	 24.467782 
544 	 7635 	 24.467782 
545 	 7645 	 24.432243 
546 	 7655 	 24.432243 
547 	 7667 	 24.464320 
548 	 7682 	 24.464320 
549 	 7696 	 24.470551 
550 	 7706 	 24.470551 
551 	 7710 	 24.488089 
552 	 7714 	 24.488089 
553 	 7724 	 24.492243 
554 	 7736 	 24.492243 
555 	 7757 	 24.459243 
556 	 7761 	 24.459243 
557 	 7765 	 24.475858 
558 	 7775 	 24.475858 
559 	 7785 	 24.470320 
560 	 7795 	 24.470320 
561 	 7805 	 24.480012 
562 	 7815 	 24.480012 
563 	 7837 	 24.476320 
564 	 7855 	 24.476320 
565 	 7869 	 24.447936 
566 	 7869 	 24.447936 
567 	 7883 	 24.486935 
568 	 7887 	 24.486935 
569 	 7887 	 24.458782 
570 	 7895 	 24.458782 
571 	 7905 	 24.483935 
572 	 7915 	 24.483935 
573 	 7925 	 24.489473 
574 	 7939 	 24.489473 
575 	 7945 	 24.483704 
576 	 7955 	 24.483704 
577 	 7965 	 24.467782 
578 	 7975 	 24.467782 
579 	 7985 	 24.487627 
580 	 8007 	 24.487627 
581 	 8011 	 24.472628 
582 	 8015 	 24.472628 
583 	 8025 	 24.481166 
584 	 8039 	 24.481166 
585 	 8045 	 24.461782 
586 	 8055 	 24.461782 
587 	 8064 	 24.463859 
588 	 8074 	 24.463859 
589 	 8086 	 24.478628 
590 	 8094 	 24.478628 
591 	 8104 	 24.489012 
592 	 8114 	 24.489012 
593 	 8132 	 24.445628 
594 	 8138 	 24.445628 
595 	 8144 	 24.486704 
596 	 8154 	 24.486704 
597 	 8164 	 24.477012 
598 	 8174 	 24.477012 
599 	 8184 	 24.459705 
600 	 8196 	 24.459705 
601 	 8206 	 24.474243 
602 	 8214 	 24.474243 
603 	 8228 	 24.483243 
604 	 8234 	 24.483243 
605 	 8244 	 24.476320 
606 	 8259 	 24.476320 
607 	 8273 	 24.469858 
608 	 8289 	 24.469858 
609 	 8303 	 24.449320 
610 	 8307 	 24.449320 
611 	 8307 	 24.488550 
612 	 8321 	 24.488550 
613 	 8325 	 24.475166 
614 	 8335 	 24.475166 
615 	 8345 	 24.457397 
616 	 8357 	 24.457397 
617 	 8367 	 24.466166 
618 	 8375 	 24.466166 
619 	 8399 	 24.509780 
620 	 8403 	 24.509780 
621 	 8407 	 24.462012 
622 	 8415 	 24.462012 
623 	 8424 	 24.486012 
624 	 8434 	 24.486012 
625 	 8456 	 24.475628 
626 	 8472 	 24.475628 
627 	 8476 	 24.463397 
628 	 8476 	 24.463397 
629 	 8484 	 24.454166 
630 	 8494 	 24.454166 
631 	 8504 	 24.510703 
632 	 8522 	 24.510703 
633 	 8526 	 24.491319 
634 	 8534 	 24.491319 
635 	 8554 	 24.507703 
636 	 8558 	 24.507703 
637 	 8564 	 24.460859 
638 	 8574 	 24.460859 
639 	 8584 	 24.470320 
640 	 8594 	 24.470320 
641 	 8606 	 24.509319 
642 	 8616 	 24.509319 
643 	 8626 	 24.470782 
644 	 8634 	 24.470782 
645 	 8644 	 24.481858 
646 	 8664 	 24.481858 
647 	 8672 	 24.509549 
648 	 8680 	 24.509549 
649 	 8690 	 24.468935 
650 	 8694 	 24.468935 
651 	 8710 	 24.490627 
652 	 8722 	 24.490627 
653 	 8726 	 24.464320 
654 	 8738 	 24.464320 
655 	 8744 	 24.503319 
656 	 8756 	 24.503319 
657 	 8766 	 24.473089 
658 	 8788 	 24.473089 
659 	 8796 	 24.449089 
660 	 8799 	 24.449089 
661 	 8805 	 24.472166 
662 	 8813 	 24.472166 
663 	 8825 	 24.485550 
664 	 8833 	 24.485550 
665 	 8843 	 24.473320 
666 	 8856 	 24.473320 
667 	 8864 	 24.467089 
668 	 8874 	 24.467089 
669 	 8884 	 24.473320 
670 	 8894 	 24.473320 
671 	 8908 	 24.456936 
672 	 8914 	 24.456936 
673 	 8928 	 24.469628 
674 	 8938 	 24.469628 
675 	 8944 	 24.481166 
676 	 8956 	 24.481166 
677 	 8972 	 24.475858 
678 	 8976 	 24.475858 
679 	 8984 	 24.490166 
680 	 8994 	 24.490166 
681 	 9006 	 24.483935 
682 	 9014 	 24.483935 
683 	 9024 	 24.482781 
684 	 9034 	 24.482781 
685 	 9048 	 24.490396 
686 	 9056 	 24.490396 
687 	 9068 	 24.490627 
688 	 9074 	 24.490627 
689 	 9084 	 24.478858 
690 	 9100 	 24.478858 
691 	 9104 	 24.484397 
692 	 9114 	 24.484397 
693 	 9124 	 24.491089 
694 	 9134 	 24.491089 
695 	 9146 	 24.507242 
696 	 9158 	 24.507242 
697 	 9173 	 24.477474 
698 	 9177 	 24.477474 
699 	 9187 	 24.474474 
700 	 9205 	 24.474474 
701 	 9209 	 24.506780 
702 	 9215 	 24.506780 
703 	 9223 	 24.469858 
704 	 9235 	 24.469858 
705 	 9245 	 24.506319 
706 	 9255 	 24.506319 
707 	 9265 	 24.509319 
708 	 9275 	 24.509319 
709 	 9285 	 24.452320 
710 	 9295 	 24.452320 
711 	 9305 	 24.481627 
712 	 9317 	 24.481627 
713 	 9325 	 24.489704 
714 	 9339 	 24.489704 
715 	 9349 	 24.514165 
716 	 9365 	 24.514165 
717 	 9369 	 24.480935 
718 	 9375 	 24.480935 
719 	 9389 	 24.465243 
720 	 9395 	 24.465243 
721 	 9411 	 24.473089 
722 	 9423 	 24.473089 
723 	 9427 	 24.479781 
724 	 9435 	 24.479781 
725 	 9445 	 24.499396 
726 	 9455 	 24.499396 
727 	 9465 	 24.497088 
728 	 9475 	 24.497088 
729 	 9485 	 24.491319 
730 	 9495 	 24.491319 
731 	 9505 	 24.494781 
732 	 9521 	 24.494781 
733 	 9525 	 24.500550 
734 	 9535 	 24.500550 
735 	 9545 	 24.492704 
736 	 9556 	 24.492704 
737 	 9564 	 24.498704 
738 	 9574 	 24.498704 
739 	 9584 	 24.480243 
740 	 9594 	 24.480243 
741 	 9614 	 24.492243 
742 	 9616 	 24.492243 
743 	 9624 	 24.487627 
744 	 9638 	 24.487627 
745 	 9656 	 24.508857 
746 	 9660 	 24.508857 
747 	 9668 	 24.476320 
748 	 9688 	 24.476320 
749 	 9692 	 24.491319 
750 	 9696 	 24.491319 
751 	 9704 	 24.491319 
752 	 9714 	 24.491319 
753 	 9724 	 24.514395 
754 	 9734 	 24.514395 
755 	 9744 	 24.495704 
756 	 9754 	 24.495704 
757 	 9764 	 24.483935 
758 	 9782 	 24.483935 
759 	 9790 	 24.490166 
760 	 9794 	 24.490166 
761 	 9804 	 24.486704 
762 	 9814 	 24.486704 
763 	 9824 	 24.486704 
764 	 9834 	 24.486704 
765 	 9844 	 24.479551 
766 	 9856 	 24.479551 
767 	 9864 	 24.479320 
768 	 9874 	 24.479320 
769 	 9884 	 24.477935 
770 	 9894 	 24.477935 
771 	 9906 	 24.485089 
772 	 9922 	 24.485089 
773 	 9927 	 24.497781 
774 	 9935 	 24.497781 
775 	 9947 	 24.485089 
776 	 9955 	 24.485089 
777 	 9965 	 24.488320 
778 	 9975 	 24.488320 
779 	 9985 	 24.474705 
780 	 9995 	 24.474705 
781 	 10005 	 24.491781 
782 	 10015 	 24.491781 
783 	 10025 	 24.490166 
784 	 10035 	 24.490166 
785 	 10045 	 24.485320 
786 	 10057 	 24.485320 
787 	 10073 	 24.487858 
788 	 10089 	 24.487858 
789 	 10093 	 24.507011 
790 	 10097 	 24.507011 
791 	 10105 	 24.503088 
792 	 10115 	 24.503088 
793 	 10125 	 24.470320 
794 	 10135 	 24.470320 
795 	 10145 	 24.497088 
796 	 10155 	 24.497088 
797 	 10165 	 24.493166 
798 	 10183 	 24.493166 
799 	 10189 	 24.480935 
800 	 10197 	 24.480935 
801 	 10207 	 24.495012 
